Temperature	cvref	ising-sad-32	ising-wl-32	ising-wl-inv-t-32	ising-wl-32-minGamma
1.5	202.0091291412346	198.80255985219324	199.68105722163833	200.72636651421283	199.447611898897
1.51	208.09656660967482	204.94511522459405	206.00453917119768	207.11852607575779	205.94759969589853
1.52	214.30626374380086	211.11255765913427	212.4247204154508	213.57300716027868	212.5317522710928
1.53	220.64025771635625	217.31651665893574	218.94976826170296	220.0932656741329	219.20135130591825
1.54	227.10067923447914	223.57297194400468	225.58768965552719	226.68360949798992	225.9578124720845
1.55	233.68975820056477	229.9018778194318	232.34607720582963	233.34915126438898	232.80270975715175
1.56	240.40982972980558	236.32651823374516	239.23191753320032	240.09575893428502	239.73783062874364
1.57	247.26334055648192	242.87261215807624	246.2514764481937	246.93000538936857	246.76525866169143
1.58	254.25285586431718	249.5672091514424	253.41026790150292	253.8591172155319	253.88747725015597
1.59	261.38106657981484	256.43743311569983	260.7131044109486	260.89092168317023	261.10748551590376
1.6	268.65079717144187	263.5091467633089	268.16421669193915	268.03378969540137	268.42891585229916
1.61	276.06501400205764	270.80561904890374	275.7674206857582	275.29657125452854	275.8561419375047
1.62	283.6268342868578	278.34628196751964	283.52630248317126	282.68851889827744	283.3943666191585
1.6300000000000001	291.3395357150854	286.1456613148796	291.4443872130895	290.2191937418369	291.04968079533364
1.6400000000000001	299.2065667995646	294.21255820291043	299.52525796145625	297.8983484508026	298.82908705774366
1.6500000000000001	307.23155802589827	302.5495446349778	307.77259594853746	305.73578195211593	306.7404850980016
1.6600000000000001	315.41833388081955	311.15281790676806	316.1901235265614	313.7411622753243	314.79261925768765
1.6700000000000002	323.77092584858383	320.01243600898596	324.78144623094147	321.9238169187481	322.99499166476403
1.6800000000000002	332.2935864746165	329.1129309531191	333.5498074467538	330.29249473302514	331.35774675800934
1.6900000000000002	340.99080460756693	338.4342708164611	342.49778682217135	338.8551095060552	339.8915343999287
1.7000000000000002	349.8673219442334	347.95311641426355	351.62698856128793	347.61848290109407	348.60735915901984
1.7100000000000002	358.9281510175075	357.64429716402304	360.9377753623199	356.58811242430687	357.5164228515411
1.7200000000000002	368.1785947848314	367.482415102001	370.42910579132854	365.7679976034623	366.6299664081226
1.7300000000000002	377.62426799508825	377.443477950192	380.0985260443214	375.1605630711377	375.9591160014555
1.7400000000000002	387.2711205350443	387.50646263819544	389.94235150272203	384.7667191704373	385.5147375691025
1.7500000000000002	397.12546298330653	397.6547197862553	399.95605090752423	394.5860974733459	395.3073037164074
1.7600000000000002	407.1939946306325	407.8771462384914	410.13481946648756	404.6174890722941	405.3467775872965
1.7700000000000002	417.4838342615922	418.16907465601815	420.4743009360961	414.85949722768356	415.6425195259244
1.7800000000000002	428.00255403407795	428.532853562235	430.97139713732355	425.31139348581905	426.2032237543758
1.7900000000000003	438.7582168419914	438.97811493715335	441.6250906435114	435.9741393899847	437.0368934075327
1.8000000000000003	449.75941760319853	449.5217466240129	452.4372052955566	446.85150715123723	448.15086243991493
1.8100000000000003	461.01532898171916	460.1876013380183	463.4130406977383	457.9512056821436	459.55187178173367
1.8200000000000003	472.53575213151686	471.0059819797719	474.5618395714403	469.2858971334788	471.2462045914676
1.8300000000000003	484.33117314216526	482.0129444877744	485.8970771116344	480.8739772087065	483.23988178506556
1.8400000000000003	496.41282597671363	493.24945595173574	497.4365938730853	492.73999300016345	495.538914941688
1.8500000000000003	508.792762823128	504.76043919788515	509.2026217765394	504.9145866770552	508.1496100993465
1.8600000000000003	521.4839329375641	516.5937278042675	521.2217702415311	517.4338824874991	521.0789137309763
1.8700000000000003	534.5002712465555	528.7989494551937	533.5250412458572	530.3382773994123	534.3347919365306
1.8800000000000003	547.8567982032092	541.4263518633812	546.1479255731294	543.6706504059973	547.9266354614462
1.8900000000000003	561.5697326703125	554.5255844282523	559.1305981802283	557.4740693648837	561.8656857535009
1.9000000000000004	575.6566199434318	568.1444497728996	572.5181823220001	571.7891437316938	576.1654791971971
1.9100000000000004	590.1364774468765	582.3276414030629	586.3609969645764	586.6512421414833	590.8423059384687
1.9200000000000004	605.0299611575839	597.1154864720417	600.7146494754303	602.0878593550581	605.9156744126398
1.9300000000000004	620.3595564670452	612.5427167497505	615.6397960620753	618.1164692875919	621.4087619473911
1.9400000000000004	636.149798019964	628.6372989342212	631.2013757784374	634.7432288994014	637.3488164166557
1.9500000000000004	652.4275241257723	645.4193717776284	647.4671378590508	651.9628890468263	653.767457006852
1.9600000000000004	669.2221726990954	662.9003673830891	664.505331186331	669.7602104830804	670.7008091329735
1.9700000000000004	686.5661274464966	681.0824417023051	682.3815097098243	688.1130671027528	688.1894065258138
1.9800000000000004	704.4951253093072	699.9584051139472	701.1545260770445	706.99724328015	706.2778098850399
1.9900000000000004	723.0487391635154	719.5124215622104	720.8719321467447	726.3927091941259	725.0139318444783
2.0000000000000004	742.2709536754821	739.7218186042004	741.565171252118	746.2909138688852	744.4481238420622
2.0100000000000007	762.2108572611112	760.5603962601299	763.2451210930734	766.7024109523231	764.6321670933605
2.0200000000000005	782.9234795534882	782.003609288318	785.8987100011162	787.6639762026375	785.6184051257533
2.0300000000000002	804.470811864216	804.0358959753822	809.4874560777699	809.2443358343348	807.4593400456309
2.0400000000000005	826.923057876677	826.6602182962572	833.9488306444468	831.5477347085844	830.2080647689121
2.0500000000000007	850.3601728915171	849.9095663914185	859.2012788761778	854.7148406725752	853.9198942768296
2.0600000000000005	874.873761209595	873.8597963966884	885.153496883705	878.9208818874616	878.6554709463139
2.0700000000000003	900.5694100488261	898.6427746835182	911.718140834304	904.3713920370416	904.4854446001721
2.0800000000000005	927.5695395268365	924.4584710188327	938.8295450010952	931.2964144446261	931.4965755680033
2.0900000000000007	956.016832242511	951.5844522566653	966.4643259762747	959.9443983848997	959.7988064670096
2.1000000000000005	986.0782568414048	980.3812216413099	994.6630821342659	990.5772156136459	989.5325380126482
2.1100000000000003	1017.9495921255241	1011.2920177290645	1023.5509251923027	1023.4676432689009	1020.875074427974
2.1200000000000006	1051.8601535441592	1044.8359556184655	1053.3544432540257	1058.9002177748491	1054.0450143344028
2.130000000000001	1088.0770691715713	1081.5936228020794	1084.4129312775342	1097.175486068807	1089.3032670317646
2.1400000000000006	1126.9078810657368	1122.1842539715558	1117.1822113642752	1138.6162995086704	1126.9493461162965
2.1500000000000004	1168.6993907859	1167.2332296841532	1152.229795068554	1183.5728786706015	1167.3115637698481
2.1600000000000006	1213.8294804168033	1217.327774412293	1190.220078142904	1232.4209719786252	1210.729621948406
2.170000000000001	1262.68716107759	1272.957455902043	1231.8872807930904	1285.5447598967962	1257.5277823153249
2.1800000000000006	1315.6345511841064	1334.4348395549164	1277.9917608307726	1343.2937647548033	1307.9762854281373
2.1900000000000004	1372.9434177041394	1401.7913977008395	1329.252453379347	1405.9019841746021	1362.238155333887
2.2000000000000006	1434.6993669288754	1474.6461591694724	1386.24566696214	1473.3595553407986	1420.298453647652
2.210000000000001	1500.670349831189	1552.0517691263228	1449.2604799261915	1545.2349434982884	1481.8743351794694
2.2200000000000006	1570.1447713058653	1632.3364364818156	1518.1067084081644	1620.4614326149008	1546.308170083675
2.2300000000000004	1641.7595111646885	1712.9802766861455	1591.886241095998	1697.126325148016	1612.453774973259
2.2400000000000007	1713.3585739826322	1790.5855181606257	1668.7640062303578	1772.3306239321146	1678.57770239197
2.250000000000001	1781.943194963173	1861.0099665019268	1745.807176891993	1842.2089318496955	1742.3113868097785
2.2600000000000007	1843.7823822813016	1919.715794203341	1818.9876497986925	1902.1939966161817	1800.6997573094145
2.2700000000000005	1894.734154625675	1962.330168992581	1883.4415047037598	1947.5587425212595	1850.388305013115
2.2800000000000007	1930.772960768734	1985.3288880568548	1934.028084189445	1974.1701762627254	1887.9646577487367
2.290000000000001	1948.6372063346178	1986.6744848867581	1966.127581677219	1979.2779757725557	1910.4216798401687
2.3000000000000007	1946.4362120650883	1966.2155777601704	1976.494088651655	1962.0980823224832	1915.651315221126
2.3100000000000005	1924.0337423803937	1925.7142367787253	1963.9081981914806	1923.9911964054609	1902.8399505643702
2.3200000000000007	1883.081982980799	1868.4935881069898	1929.409281406574	1868.1748650462578	1872.6444895025459
2.330000000000001	1826.697091718814	1798.8262356530327	1876.0327018279684	1799.0770656049867	1827.0898314584585
2.3400000000000007	1758.8876110960057	1721.2515977786506	1808.1588625525933	1721.5495121463225	1769.2182982312288
2.3500000000000005	1683.9114147703408	1639.9944028813559	1730.7018395254493	1640.1636521344635	1702.5970538222296
2.3600000000000008	1605.7240828851225	1558.5832958232795	1648.3733361182653	1558.7318947020474	1630.8174701547923
2.370000000000001	1527.6145689645348	1479.6848019601002	1565.1738252743378	1480.090090364139	1557.0962955863297
2.380000000000001	1452.0456712314867	1405.1094332236526	1484.1505683885314	1406.096475180544	1484.0340786026288
2.3900000000000006	1380.6606211652252	1335.924162300235	1407.3774400196883	1337.7670806214792	1413.5309468453243
2.400000000000001	1314.3939958265912	1272.6104815538415	1336.0751297981658	1275.4701490407706	1346.8233633466625
2.410000000000001	1253.628314611933	1215.2252464014734	1270.793458656386	1219.1237571716451	1284.5925792776306
2.420000000000001	1198.353928034483	1163.5408362580695	1211.6001404866572	1168.3656801396592	1227.1002280522612
2.4300000000000006	1148.30816165339	1117.1559523616245	1158.2455443262388	1122.6840354207252	1174.319650316655
2.440000000000001	1103.0842608005976	1075.577312195041	1110.292278584347	1081.5092588281223	1126.0457059597281
2.450000000000001	1062.209902746451	1038.2766700956372	1067.209856668723	1044.2736803197772	1081.9770518410467
2.460000000000001	1025.1996570639426	1004.7287152709154	1028.4398558192659	1010.4465734797457	1041.7720273122516
2.4700000000000006	991.5872830888762	974.434957892537	993.4382501512031	979.5519900659383	1005.0828843583139
2.480000000000001	960.9435397120504	946.9376982819784	961.7009847742585	951.1752740868458	971.5741859403529
2.490000000000001	932.8842218185398	921.8271181649609	932.7776254223963	924.9626113062257	940.9308149737723
2.500000000000001	907.0720010917694	898.7436612159158	906.2767038224843	900.6166395876779	912.8599748171937
2.5100000000000007	883.2146156348758	877.3772318466158	881.8654143415285	877.8901201415216	887.0903260872167
2.520000000000001	861.0611242838858	857.464305039369	859.2656230869511	856.5789340927589	863.3702721739704
2.530000000000001	840.3973265678239	838.7837498593534	838.2476653558525	836.5151660053968	841.466499044537
2.540000000000001	821.0410175382568	821.1519718964014	818.6230568848041	817.560703838522	821.1632211575779
2.5500000000000007	802.8374568346309	804.4178355249069	800.2369709883236	799.6015705852507	802.2621620609219
2.560000000000001	785.6552445041763	788.457710625866	782.9611028619556	782.5430672864704	784.5830617674992
2.570000000000001	769.3826806282251	773.1708875654189	766.687339133637	766.3057231272531	767.9644052310077
2.580000000000001	753.9246179823375	758.4755143630283	751.3224726592792	750.8219981997464	752.2640631479998
2.5900000000000007	739.1997798811158	744.3051313347165	736.7840526439325	736.0336569328153	737.3595913035798
2.600000000000001	725.1384974665867	730.6058130927332	722.9973422080483	721.8897178982864	723.148019205142
2.610000000000001	711.6808143174189	717.3338775764681	709.8932712313989	708.3448838502289	709.54505160746
2.620000000000001	698.7749064369452	704.4540876634202	697.4072204283757	695.3583609676845	696.4836928342958
2.630000000000001	686.3757693142676	691.9382523414728	685.478449269594	682.8929857016494	683.9123740141223
2.640000000000001	674.4441289545636	679.7641296026054	674.0499798797711	670.9145892859444	671.7927123869795
2.6500000000000012	662.9455394364786	667.914539393994	663.0687650790848	659.3915422264092	660.0970583097911
2.660000000000001	651.8496350629741	656.3766088960767	652.4859950830471	648.2944327543762	648.8059909497699
2.670000000000001	641.1295102184602	645.1410907895781	642.2574287377446	637.595843512424	637.9059114895282
2.680000000000001	630.7612045005269	634.2017150163587	632.3436672308918	627.2701992529877	627.3868576433288
2.6900000000000013	620.7232745341904	623.5545533634216	622.710318055076	617.293664961379	617.2406305911994
2.700000000000001	610.9964371304242	613.1973922106127	613.3280226607569	607.6440787154903	607.4592898903757
2.710000000000001	601.5632711759758	603.1291208957804	604.1723418396599	598.3009070587033	598.0340376324517
2.720000000000001	592.4079679044911	593.3491509396882	595.223508186381	589.2452130537432	588.9544830852732
2.7300000000000013	583.5161210669198	583.8568849663108	586.4660653276842	580.4596288751961	580.2082552008245
2.740000000000001	574.8745500541543	574.6512540928696	577.8884195923899	571.9283261069439	571.7809135069654
2.750000000000001	566.4711502824446	565.7303396469421	569.4823322144019	563.6369780851838	563.6560979955369
2.760000000000001	558.2947661802607	557.0910902161396	561.2423798376348	555.5727098293224	555.8158549954956
2.7700000000000014	550.3350829547629	548.7291391569015	553.1654088109938	547.7240324049526	548.241077591941
2.780000000000001	542.5825340010086	540.638721603156	545.2500052315283	540.0807599641056	540.9120046669252
2.790000000000001	535.0282213758238	532.8126843826301	537.4959984758648	532.6339091662029	533.8087307978066
2.800000000000001	527.6638472142301	525.2425775477985	529.9040115438562	525.3755821108339	526.9116888796488
2.8100000000000014	520.4816543385313	517.9188127548616	522.4750672353878	518.2988352196751	520.2020774242692
2.820000000000001	513.4743746143462	510.83087160267564	515.2102552476623	511.3975376059998	513.662214212301
2.830000000000001	506.6351838565994	503.9675462557996	508.1104618607189	504.6662232924992	507.27580676959855
2.840000000000001	499.9576622922351	497.3171951005124	501.1761610380114	498.09994214142006	501.0281375941945
2.8500000000000014	493.4357597534647	490.86799761633176	494.4072635457486	491.69411452633796	494.90616798954915
2.860000000000001	487.0637649125977	484.60819484994175	487.8030190501277	485.4443946146906	488.8985686977965
2.870000000000001	480.83627798241884	478.5263045936504	481.3619650568396	479.34654667837475	482.99568835546773
2.8800000000000012	474.7481863991322	472.6113033491639	475.08191593615885	473.39633815632243	477.18947225421164
2.8900000000000015	468.7946430817899	466.85277016777235	468.9599850594766	467.58945232524377	471.47334420584826
2.9000000000000012	462.97104692571065	461.2409903119481	462.9926331848148	461.92142245458115	465.8420637216616
2.910000000000001	457.2730252401807	455.7670192255944	457.1757365932614	456.387588303213	460.2915694733219
2.9200000000000013	451.6964178846082	450.42270942548913	451.5046690217724	450.98307481674414	454.81881834388685
2.9300000000000015	446.23726289382165	445.20070457020466	445.9743921055702	445.7027919600978	449.4216275164928
2.9400000000000013	440.89178341379215	440.09440610206815	440.5795497709757	440.5414538143347	444.09852515623453
2.950000000000001	435.6563757945531	435.09791850401086	435.3145627686655	435.4936144089524	438.8486134631095
2.9600000000000013	430.5275987086599	430.2059794082181	430.1737202681226	430.5537172704173	433.6714462967169
2.9700000000000015	425.502163181545	425.41388059753217	425.1512661236596	425.7161553528375	428.566922264341
2.9800000000000013	420.57692343539395	420.71738543134643	420.24147804444783	420.97533787475845	423.5351931370275
2.990000000000001	415.74886846113066	416.1126474864481	415.43873845247504	416.3257606048387	418.57658671935775
3.0000000000000013	411.0151142440444	411.5961343131442	410.73759628441	411.7620763032552	413.6915428213224
3.0100000000000016	406.3728965779399	407.16455924633544	406.13281938594315	407.2791623116572	408.8805607282787
3.0200000000000014	401.8195644107103	402.8148232475498	401.61943746117873	402.87218266523814	404.14415648941764
3.030000000000001	397.35257367102196	398.5439678452036	397.19277579411283	398.53664255295166	399.4828284155005
3.0400000000000014	392.9694815317476	394.3491394304499	392.84848014386216	394.26843344349794	394.8970293270123
3.0500000000000016	388.6679410707943	390.2275644821514	388.5825333531864	390.06386770692126	390.3871443022639
3.0600000000000014	384.44569629440815	386.176534758492	384.39126431001466	385.9197020629039	385.95347290716734
3.070000000000001	380.3005774918087	382.1934011043965	380.27134995777396	381.8331496635065	381.596215105517
3.0800000000000014	376.23049689334084	378.27557428328146	376.2198110919538	377.80188105518613	377.31546025498426
3.0900000000000016	372.23344460720625	374.4205311334251	372.23400269307	373.82401463243457	373.1111787585294
3.1000000000000014	368.30748481238135	370.62582435727364	368.3115995507114	369.89809751942823	368.98321607399896
3.110000000000001	364.4507521875424	366.88909435430173	364.4505779213225	366.02307804973435	364.931288874683
3.1200000000000014	360.6614485577715	363.20808168192417	360.64919394740525	362.19827119125154	360.9549832138803
3.1300000000000017	356.937839742571	359.5806389524625	356.90595954103713	358.4233183666315	357.05375457448383
3.1400000000000015	353.2782525902011	356.0047412238147	353.219616403353	354.69814316037133	353.2269296891735
3.1500000000000012	349.6810721847674	352.4784942020566	349.58910882420844	351.0229043876605	349.4737100136658
3.1600000000000015	346.14473921366067	349.0001398248696	346.0135558565891	347.39794793497794	345.7931767056238
3.1700000000000017	342.6677474840243	345.5680590271552	342.4922234303628	343.82375868038497	342.1842969536622
3.1800000000000015	339.2486415779735	342.18077169277484	339.0244969145021	340.30091366373307	338.64593146949227
3.1900000000000013	335.8860146369957	338.8369339631638	335.6098545882027	336.8300375250487	335.1768429441135
3.2000000000000015	332.57850626694716	335.5353332030982	332.24784242922266	333.4117610595879	331.77570525818857
3.2100000000000017	329.32480055558653	332.27488101392714	328.9380505681976	330.04668356552514	328.4411132342895
3.2200000000000015	326.1236241953586	329.0546047387107	325.6800916996831	326.73533949095656	325.17159272245766
3.2300000000000013	322.97374470458016	325.87363792373054	322.47358168104887	323.47816972182176	321.9656108244957
3.2400000000000015	319.87396874084675	322.73121019328283	319.31812248727425	320.2754977008047	318.8215860765536
3.2500000000000018	316.82314050085375	319.6266369621265	316.213287635364	317.12751043167725	315.7378984368513
3.2600000000000016	313.8201402012664	316.5593093617948	313.1586101293537	314.0342443012425	312.7128989446078
3.2700000000000014	310.8638826357241	313.5286846945581	310.1535729257115	310.9955755486673	309.7449189450709
3.2800000000000016	307.9533158033546	310.5342776608326	307.1976018700939	308.01121512800256	306.83227880263536
3.290000000000002	305.0874196045542	307.5756525347691	304.2900610092463	305.08070764127433	303.9732960462522
3.3000000000000016	302.2652046000425	304.65241639334397	301.4302501423704	302.20343396942513	301.16629291325467
3.3100000000000014	299.4857108295405	301.7642134401874	298.6174044462727	299.37861719195797	298.40960328056735
